2-Wire Card Calibration

Resistance (ohms)	V (V)
8.1	-0.02
36.3	0.001
155.8	0.002
271.2	0.004
383.6	0.005
611	0.007
1001.4	0.011
1463	0.016
2676	0.028
3400	0.036
4540	0.047
5700	0.059
9860	0.101
19904	0.203
35660	0.363
47120	0.479
99730	1.013
120180	1.221
150360	1.527
200450	2.036
300180	3.048
350810	3.562
403000	3.75
502730	3.97
603450	4.13
