4-Wire Card Calibration	
	
Resistance (ohms)	V (V)
611	0.00555
1001.4	0.00957
1463	0.01434
2676	0.0269
3400	0.03439
4540	0.04608
5700	0.0581
9860	0.10101
19904	0.20472
35660	0.3673
47120	0.4859
99730	1.029
120180	1.2402
150360	1.5517
200450	2.0691
300180	3.099
350810	3.603
403000	3.763
502730	3.979
603450	4.139
